ECG
0.687
0.831
0.976
1.116
1.232
1.289
1.288
1.253
1.22
1.196
1.181
1.168
1.158
1.151
1.146
1.141
1.134
1.128
1.122
1.116
1.108
1.095
1.076
1.063
1.056
1.051
1.048
1.045
1.041
1.037
1.031
1.026
1.022
1.017
1.013
1.01
1.005
1.001
0.997
0.992
0.988
0.984
0.981
0.978
0.974
0.97
0.95
0.906
0.859
0.809
0.753
0.691
0.627
0.558
0.486
0.417
0.357
0.321
0.284
0.247
0.216
0.193
0.177
0.16
0.144
0.129
0.109
0.083
0.057
0.03
0.002
-0.025
-0.054
-0.084
-0.108
-0.127
-0.152
-0.162
-0.168
-0.173
-0.177
-0.18
-0.183
-0.185
-0.186
-0.187
-0.187
-0.186
-0.184
-0.181
-0.179
-0.176
-0.174
-0.173
-0.172
-0.171
-0.171
-0.171
-0.172
-0.173
-0.173
-0.173
-0.172
-0.171
-0.169
-0.167
-0.164
-0.16
-0.157
-0.155
-0.153
-0.152
-0.151
-0.15
-0.148
-0.145
-0.142
-0.139
-0.135
-0.131
-0.128
-0.125
-0.124
-0.124
-0.124
-0.125
-0.127
-0.128
-0.13
-0.132
-0.134
-0.136
-0.138
-0.141
-0.144
-0.153
-0.177
-0.201
-0.226
-0.252
-0.281
-0.306
-0.321
-0.334
-0.345
-0.351
-0.357
-0.361
-0.365
-0.367
-0.369
-0.371
-0.371
-0.369
-0.367
-0.364
-0.36
-0.354
-0.347
-0.331
-0.298
-0.265
-0.231
-0.17
-0.102
-0.038
0.02
0.072
0.119
0.147
0.163
0.172
0.179
0.182
0.182
0.179
0.173
0.165
0.149
0.125
0.102
0.081
0.049
0.006
-0.055
-0.118
-0.163
-0.185
-0.212
-0.258
-0.32
-0.372
-0.391
-0.397
-0.392
-0.38
-0.36
-0.333
-0.307
-0.274
-0.204
-0.11
-0.032
0.017
0.05
0.086
0.117
0.166
0.212
0.274
0.358
0.464
0.591
0.738
0.902
1.053
1.156
1.19
1.185
1.128
1.012
0.859
0.692
0.527
0.376
0.253
0.184
0.16
0.151
0.158
0.174
0.193
0.214
0.228
0.236
0.242
0.247
0.25
0.252
0.252
0.249
0.245
0.241
0.236
0.229
0.224
0.224
0.234
0.247
0.261
0.278
0.284
0.286
0.289
0.294
0.276
0.245
0.208
0.183
0.169
0.16
0.153
0.147
0.142
0.135
0.128
0.118
0.105
0.086
0.057
0.025
0.003
-0.004
-0.01
-0.013
-0.015
-0.012
-0.006
0.004
0.022
0.053
0.087
0.121
0.15
0.172
0.194
0.223
0.255
0.27
0.278
0.284
0.288
0.291
0.291
0.287
0.281
0.272
0.26
0.237
0.206
0.182
0.159
0.136
0.106
0.086
0.076
0.068
0.062
0.055
0.05
0.044
0.04
0.034
0.028
0.021
0.014
0.011
0.012
0.018
0.026
0.037
0.058
0.089
0.115
0.142
0.158
0.167
0.174
0.178
0.179
0.174
0.164
0.15
0.125
0.088
0.037
-0.012
-0.061
-0.106
-0.155
-0.184
-0.207
-0.222
-0.221
-0.201
-0.172
-0.14
-0.116
-0.09
-0.063
-0.033
-0.017
-0.009
-0.003
0.0
0.004
0.008
0.012
0.015
0.019
0.023
0.029
0.037
0.05
0.063
0.076
0.097
0.127
0.158
0.19
0.218
0.237
0.249
0.257
0.264
0.269
0.269
0.261
0.248
0.232
0.213
0.21
0.208
0.205
0.217
0.238
0.262
0.302
0.351
0.401
0.445
0.471
0.488
0.499
0.505
0.505
0.499
0.491
0.479
0.467
0.476
0.503
0.564
0.637
0.714
0.791
0.872
0.963
1.065
1.152
1.201
1.216
1.225
1.229
1.229
1.226
1.22
1.21
1.178
1.135
1.088
1.057
1.022
0.99
0.959
0.93
0.886
0.843
0.799
0.748
0.696
0.639
0.552
0.437
0.324
0.231
0.155
0.087
0.028
-0.018
-0.045
-0.068
-0.082
-0.067
-0.021
0.058
0.169
0.31
0.441
0.472
0.461
0.378
0.297
0.194
0.016
-0.248
-0.588
-0.983
-1.38
-1.708
-1.929
-2.077
-2.22
-2.375
-2.505
-2.538
-2.534
-2.477
-2.401
-2.317
-2.258
-2.235
-2.212
-2.182
-2.15
-2.105
-2.05
-1.988
-1.917
-1.85
-1.799
-1.765
-1.699
-1.618
-1.528
-1.411
-1.282
-1.19
-1.133
-1.1
-1.087
-1.088
-1.103
-1.125
-1.152
-1.196
-1.236
-1.25
-1.25
-1.233
-1.191
-1.11
-1.027
-0.976
-0.961
-0.944
-0.927
-0.896
-0.868
-0.854
-0.845
-0.87
-0.946
-1.011
-1.042
-1.082
-1.132
-1.196
-1.287
-1.355
-1.358
-1.308
-1.187
-1.064
-0.959
-0.855
-0.765
-0.7
-0.643
-0.59
-0.572
-0.601
-0.69
-0.807
-0.867
-0.888
-0.895
-0.901
-0.906
-0.895
-0.865
-0.797
-0.671
-0.495
-0.295
-0.082
0.156
0.378
0.504
0.515
0.445
0.285
0.086
-0.109
-0.187
-0.189
-0.123
-0.073
-0.072
-0.118
-0.265
-0.473
-0.643
-0.713
-0.638
-0.446
-0.231
-0.063
0.013
0.021
-0.015
-0.077
-0.107
-0.129
-0.143
-0.129
-0.085
0.0
0.106
0.219
0.304
0.368
0.405
0.418
0.404
0.362
0.249
0.114
0.024
-0.02
-0.02
0.022
0.104
0.172
0.246
0.319
0.346
0.348
0.337
0.308
0.247
0.188
0.115
0.084
0.094
0.178
0.306
0.438
0.552
0.593
0.606
0.576
0.546
0.527
0.513
0.504
0.495
0.478
0.448
0.415
0.391
0.381
0.374
0.368
0.361
0.337
0.289
0.276
0.268
0.26
0.252
0.247
0.237
0.19
0.138
0.099
0.085
0.081
0.09
0.107
0.122
0.14
0.14
0.121
0.071
0.003
-0.024
-0.014
0.018
0.036
0.048
0.057
0.063
0.07
0.075
0.075
0.065
0.045
-0.015
-0.082
-0.113
-0.136
-0.165
-0.225
-0.275
-0.307
-0.364
-0.437
-0.489
-0.519
-0.568
-0.628
-0.657
-0.672
-0.683
-0.681
-0.654
-0.578
-0.444
-0.267
-0.047
0.189
0.383
0.46
0.448
0.311
0.037
-0.26
-0.538
-0.759
-0.895
-0.932
-0.943
-0.929
-0.886
-0.813
-0.75
-0.701
-0.653
-0.629
-0.594
-0.521
-0.455
-0.43
-0.428
-0.439
-0.469
-0.512
-0.567
-0.632
-0.69
-0.731
-0.746
-0.745
-0.729
-0.685
-0.641
-0.59
-0.55
-0.536
-0.553
-0.604
-0.666
-0.722
-0.791
-0.812
-0.823
-0.82
-0.783
-0.738
-0.68
-0.66
-0.648
-0.651
-0.671
-0.685
-0.698
-0.719
-0.72
-0.683
-0.612
-0.536
-0.492
-0.479
-0.469
-0.463
-0.456
-0.431
-0.318
-0.112
0.237
0.719
1.234
1.699
2.019
2.102
2.097
1.993
1.886
1.808
1.798
1.828
1.929
2.043
2.129
2.158
2.145
2.104
2.053
2.027
2.013
2.005
1.998
1.991
1.983
1.968
1.944
1.918
1.891
1.866
1.849
1.841
1.837
1.834
1.829
1.821
1.81
1.791
1.762
1.734
1.707
1.688
1.676
1.666
1.657
1.647
1.633
1.614
1.589
1.559
1.507
1.443
1.368
1.29
1.215
1.147
1.092
1.044
0.994
0.94
0.888
0.842
0.797
0.773
0.734
0.695
0.653
0.61
0.583
0.555
0.53
0.51
0.488
0.469
0.454
0.438
0.421
0.405
0.389
0.349
0.276
0.173
0.075
0.002
-0.051
-0.075
-0.091
-0.101
-0.093
-0.072
-0.022
0.057
0.139
0.173
0.183
0.189
0.195
0.201
0.206
0.212
0.217
0.222
0.226
0.227
0.228
0.229
0.231
0.234
0.222
0.188
0.156
0.136
0.115
0.09
0.061
0.036
0.019
0.007
0.005
0.013
0.036
0.068
0.088
0.109
0.132
0.153
0.167
0.166
0.147
0.097
0.021
-0.058
-0.131
-0.199
-0.278
-0.368
-0.45
-0.511
-0.532
-0.539
-0.542
-0.542
-0.539
-0.533
-0.523
-0.502
-0.48
-0.466
-0.459
-0.456
-0.45
-0.445
-0.455
-0.485
-0.529
-0.576
-0.599
-0.594
-0.547
-0.458
-0.337
-0.174
0.034
0.267
0.48
0.632
0.695
0.658
0.52
0.302
0.043
-0.214
-0.432
-0.567
-0.639
-0.699
-0.789
-0.91
-1.031
-1.086
-1.007
-0.78
-0.454
-0.127
0.117
0.197
0.223
0.237
0.244
0.25
0.263
0.279
0.287
0.292
0.295
0.294
0.288
0.275
0.239
0.188
0.154
0.144
0.138
0.134
0.133
0.134
0.137
0.141
0.145
0.157
0.156
0.133
0.114
0.097
0.077
0.033
-0.039
-0.11
-0.165
-0.191
-0.19
-0.158
-0.104
-0.097
-0.113
-0.166
-0.21
-0.252
-0.313
-0.383
-0.423
-0.436
-0.42
-0.37
-0.249
-0.082
0.078
0.193
0.263
0.296
0.306
0.313
0.321
0.329
0.345
0.365
0.381
0.401
0.421
0.434
0.435
0.425
0.412
0.393
0.359
0.325
0.304
0.284
0.27
0.259
0.231
0.176
0.092
-0.016
-0.13
-0.223
-0.294
-0.352
-0.37
-0.379
-0.372
-0.318
-0.229
-0.124
-0.023
0.059
0.094
0.107
0.106
0.087
0.072
0.057
0.05
0.054
0.065
0.083
0.103
0.13
0.164
0.208
0.23
0.237
0.242
0.245
0.246
0.246
0.244
0.239
0.234
0.224
0.204
0.181
0.154
0.124
0.092
0.06
0.026
0.008
0.001
-0.004
-0.009
-0.012
-0.015
-0.018
-0.021
-0.022
-0.024
-0.025
-0.027
-0.03
-0.033
-0.04
-0.048
-0.056
-0.069
-0.088
-0.12
-0.164
-0.215
-0.264
-0.308
-0.328
-0.338
-0.346
-0.349
-0.343
-0.328
-0.303
-0.281
-0.274
-0.268
-0.265
-0.265
-0.267
-0.269
-0.271
-0.274
-0.273
-0.266
-0.261
-0.259
-0.258
-0.257
-0.255
-0.253
-0.249
-0.246
-0.241
-0.235
-0.222
-0.197
-0.171
-0.145
-0.12
-0.095
-0.078
-0.068
-0.061
-0.055
-0.051
-0.049
-0.047
-0.046
-0.044
-0.043
-0.042
-0.041
-0.04
-0.04
-0.04
-0.042
-0.043
-0.045
-0.048
-0.051
-0.055
-0.058
-0.062
-0.068
-0.08
-0.081
-0.072
-0.049
0.027
0.138
0.28
0.446
0.619
0.783
0.907
0.952
0.894
0.726
0.459
0.134
-0.191
-0.454
-0.586
-0.597
-0.52
-0.355
-0.18
-0.029
0.061
0.094
0.104
0.115
0.138
0.196
0.266
0.32
0.338
0.327
0.296
0.241
0.182
0.126
0.075
0.027
0.0
-0.027
-0.05
-0.071
-0.096
-0.126
-0.156
-0.189
-0.216
-0.237
-0.259
-0.28
-0.304
-0.318
-0.324
-0.33
-0.333
-0.336
-0.337
-0.337
-0.336
-0.333
-0.329
-0.324
-0.318
-0.309
-0.291
-0.275
-0.259
-0.243
-0.228
-0.209
-0.184
-0.157
-0.131
-0.111
-0.095
-0.08
-0.06
-0.036
-0.019
-0.007
0.008
0.017
0.024
0.03
0.034
0.036
0.034
0.03
0.023
0.015
0.003
-0.014
-0.023
-0.029
-0.034
-0.039
-0.045
-0.051
-0.058
-0.065
-0.073
-0.081
-0.089
-0.095
-0.1
-0.103
-0.106
-0.109
-0.113
-0.118
-0.122
-0.126
-0.133
-0.142
-0.159
-0.194
-0.23
-0.267
-0.305
-0.343
-0.381
-0.408
-0.421
-0.43
-0.434
-0.428
-0.412
-0.389
-0.36
-0.338
-0.311
-0.285
-0.267
-0.251
-0.243
-0.236
-0.231
-0.227
-0.224
-0.223
-0.222
-0.222
-0.222
-0.223
-0.224
-0.226
-0.229
-0.232
-0.236
-0.253
-0.311
-0.371
-0.398
-0.416
-0.428
-0.417
-0.384
-0.328
-0.259
-0.18
-0.097
-0.012
0.059
0.112
0.143
0.175
0.204
0.226
0.243
0.264
0.286
0.307
0.325
0.335
0.342
0.348
0.353
0.355
0.356
0.354
0.352
0.348
0.343
0.337
0.327
0.304
0.279
0.252
0.237
0.229
0.222
0.218
0.216
0.217
0.22
0.226
0.234
0.249
0.275
0.299
0.323
0.349
0.372
0.408
0.455
0.511
0.574
0.636
0.693
0.729
0.767
0.805
0.843
0.879
0.897
0.907
0.914
0.919
0.922
0.921
0.919
0.914
0.907
0.898
0.881
0.853
0.829
0.801
0.769
0.744
0.726
0.715
0.727
0.766
0.85
0.971
1.12
1.285
1.436
1.5
1.486
1.351
1.084
0.738
0.383
0.096
-0.077
-0.128
-0.141
-0.149
-0.154
-0.161
-0.168
-0.174
-0.179
-0.185
-0.191
-0.196
-0.202
-0.206
-0.211
-0.216
-0.221
-0.226
-0.23
-0.234
-0.239
-0.244
-0.249
-0.254
-0.255
-0.253
-0.248
-0.242
-0.235
-0.225
-0.207
-0.192
-0.177
-0.161
-0.14
-0.124
-0.113
-0.104
-0.094
-0.086
-0.078
-0.069
-0.059
-0.05
-0.041
-0.033
-0.028
-0.023
-0.019
-0.016
-0.013
-0.012
-0.011
-0.011
-0.011
-0.013
-0.015
-0.02
-0.025
-0.03
-0.035
-0.041
-0.05
-0.059
-0.068
-0.075
-0.082
-0.089
-0.098
-0.11
-0.123
-0.136
-0.156
-0.184
-0.212
-0.244
-0.281
-0.316
-0.343
-0.364
-0.389
-0.41
-0.428
-0.443
-0.457
-0.47
-0.482
-0.492
-0.5
-0.507
-0.515
-0.525
-0.53
-0.522
-0.503
-0.475
-0.432
-0.386
-0.342
-0.269
-0.193
-0.128
-0.089
-0.05
-0.015
0.018
0.052
0.077
0.094
0.11
0.125
0.142
0.163
0.185
0.204
0.219
0.234
0.247
0.256
0.264
0.271
0.275
0.277
0.274
0.266
0.255
0.242
0.226
0.202
0.185
0.173
0.166
0.161
0.155
0.15
0.146
0.142
0.14
0.139
0.139
0.139
0.141
0.142
0.144
0.147
0.15
0.153
0.156
0.159
0.161
0.163
0.166
0.171
0.175
0.179
0.18
0.179
0.175
0.17
0.163
0.155
0.146
0.135
0.122
0.109
0.097
0.084
0.068
0.048
0.031
0.017
0.001
-0.016
-0.034
-0.053
-0.072
-0.096
-0.128
-0.167
-0.206
-0.244
-0.274
-0.297
-0.324
-0.36
-0.401
-0.424
-0.436
-0.447
-0.46
-0.474
-0.488
-0.501
-0.514
-0.526
-0.535
-0.54
-0.544
-0.547
-0.552
-0.559
-0.563
-0.552
-0.532
-0.521
-0.512
-0.506
-0.5
-0.495
-0.491
-0.486
-0.48
-0.476
-0.473
-0.47
-0.463
-0.456
-0.441
-0.404
-0.333
-0.231
-0.089
0.099
0.326
0.562
0.757
0.812
0.787
0.609
0.33
0.034
-0.216
-0.377
-0.408
-0.418
-0.404
-0.39
-0.379
-0.369
-0.354
-0.307
-0.24
-0.2
-0.165
-0.14
-0.116
-0.094
-0.072
-0.046
-0.028
-0.015
-0.005
0.002
0.008
0.012
0.016
0.019
0.023
0.026
0.03
0.032
0.033
0.033
0.031
0.028
0.022
0.014
0.003
-0.017
-0.055
-0.089
-0.128
-0.173
-0.215
-0.254
-0.291
-0.325
-0.362
-0.383
-0.394
-0.403
-0.409
-0.412
-0.411
-0.407
-0.399
-0.388
-0.377
-0.365
-0.349
-0.331
-0.316
-0.301
-0.284
-0.264
-0.247
-0.232
-0.214
-0.191
-0.163
-0.125
-0.082
-0.042
-0.003
0.033
0.069
0.102
0.14
0.16
0.168
0.175
0.18
0.185
0.189
0.194
0.199
0.204
0.208
0.211
0.215
0.218
0.221
0.224
0.231
0.239
0.245
0.245
0.239
0.228
0.212
0.179
0.148
0.141
0.135
0.13
0.126
0.127
0.132
0.138
0.14
0.142
0.145
0.147
0.15
0.154
0.158
0.161
0.165
0.168
0.17
0.173
0.176
0.179
0.183
0.189
0.198
0.214
0.232
0.249
0.266
0.283
0.302
0.317
0.33
0.34
0.346
0.351
0.355
0.36
0.363
0.366
0.367
0.368
0.368
0.367
0.365
0.361
0.354
0.346
0.335
0.323
0.298
0.248
0.211
0.183
0.15
0.124
0.103
0.088
0.078
0.07
0.064
0.058
0.054
0.049
0.044
0.038
0.029
0.02
0.01
0.0
-0.007
-0.014
-0.022
-0.029
-0.037
-0.045
-0.053
-0.061
-0.067
-0.072
-0.077
-0.081
-0.086
-0.091
-0.098
-0.105
-0.11
-0.111
-0.106
-0.098
-0.087
-0.075
-0.064
-0.05
-0.035
-0.023
-0.012
-0.002
0.004
0.01
0.016
0.022
0.026
0.029
0.031
0.03
0.027
0.023
0.017
0.01
0.002
-0.006
-0.015
-0.03
-0.044
-0.054
-0.06
-0.066
-0.077
-0.09
-0.073
-0.02
0.075
0.221
0.419
0.651
0.871
0.991
0.99
0.869
0.587
0.221
-0.148
-0.453
-0.659
-0.739
-0.769
-0.769
-0.743
-0.716
-0.689
-0.663
-0.65
-0.64
-0.632
-0.626
-0.622
-0.62
-0.619
-0.62
-0.623
-0.626
-0.631
-0.639
-0.65
-0.624
-0.581
-0.531
-0.48
-0.424
-0.322
-0.201
-0.09
-0.015
0.028
0.063
0.089
0.126
0.153
0.172
0.187
0.199
0.207
0.215
0.227
0.247
0.273
0.3
0.327
0.357
0.387
0.417
0.443
0.477
0.522
0.56
0.588
0.611
0.642
0.685
0.724
0.753
0.778
0.79
0.798
0.805
0.81
0.814
0.816
0.817
0.817
0.814
0.809
0.801
0.792
0.782
0.77
0.759
0.745
0.729
0.714
0.702
0.691
0.678
0.661
0.64
0.619
0.599
0.568
0.522
0.476
0.425
0.38
0.347
0.318
0.279
0.232
0.188
0.139
0.097
0.064
0.028
-0.021
-0.078
-0.12
-0.152
-0.185
-0.218
-0.251
-0.287
-0.315
-0.335
-0.355
-0.38
-0.404
-0.415
-0.423
-0.429
-0.435
-0.44
-0.445
-0.449
-0.453
-0.456
-0.459
-0.462
-0.465
-0.468
-0.47
-0.471
-0.472
-0.473
-0.474
-0.475
-0.475
-0.476
-0.476
-0.477
-0.478
-0.48
-0.482
-0.485
-0.489
-0.493
-0.494
-0.489
-0.476
-0.458
-0.441
-0.427
-0.41
-0.393
-0.378
-0.366
-0.356
-0.347
-0.34
-0.334
-0.328
-0.322
-0.316
-0.31
-0.305
-0.299
-0.293
-0.286
-0.279
-0.272
-0.265
-0.258
-0.252
-0.245
-0.236
-0.229
-0.222
-0.217
-0.213
-0.211
-0.21
-0.21
-0.213
-0.218
-0.226
-0.236
-0.247
-0.259
-0.272
-0.289
-0.323
-0.356
-0.389
-0.417
-0.441
-0.462
-0.479
-0.492
-0.505
-0.517
-0.529
-0.54
-0.549
-0.557
-0.565
-0.572
-0.58
-0.588
-0.594
-0.594
-0.583
-0.567
-0.548
-0.532
-0.511
-0.492
-0.483
-0.485
-0.49
-0.497
-0.506
-0.52
-0.517
-0.485
-0.398
-0.27
-0.102
0.096
0.311
0.503
0.598
0.592
0.464
0.199
-0.136
-0.459
-0.698
-0.796
-0.83
-0.789
-0.661
-0.48
-0.278
-0.079
0.031
0.06
0.079
0.092
0.104
0.119
0.134
0.146
0.157
0.166
0.175
0.183
0.19
0.194
0.197
0.201
0.205
0.208
0.21
0.21
0.209
0.207
0.204
0.2
0.194
0.188
0.178
0.169
0.168
0.183
0.207
0.235
0.275
0.315
0.358
0.4
0.437
0.485
0.542
0.588
0.622
0.654
0.687
0.719
0.752
0.768
0.777
0.786
0.792
0.797
0.801
0.803
0.805
0.805
0.802
0.798
0.793
0.785
0.774
0.761
0.748
0.73
0.697
0.667
0.639
0.615
0.593
0.572
0.551
0.529
0.508
0.487
0.466
0.448
0.427
0.399
0.361
0.322
0.289
0.26
0.233
0.207
0.177
0.141
0.09
0.073
0.067
0.063
0.059
0.054
0.05
0.046
0.042
0.038
0.035
0.032
0.029
0.026
0.024
0.024
0.024
0.024
0.025
0.026
0.026
0.025
0.024
0.023
0.021
0.019
0.017
0.015
0.014
0.015
0.016
0.016
0.018
0.02
0.022
0.024
0.026
0.027
0.028
0.029
0.028
0.027
0.026
0.025
0.023
0.022
0.019
0.015
0.01
0.006
0.001
-0.007
-0.029
-0.057
-0.087
-0.119
-0.151
-0.183
-0.213
-0.244
-0.272
-0.29
-0.304
-0.317
-0.328
-0.336
-0.343
-0.346
-0.346
-0.342
-0.334
-0.325
-0.314
-0.301
-0.286
-0.269
-0.242
-0.217
-0.2
-0.186
-0.172
-0.154
-0.14
-0.14
-0.164
-0.202
-0.25
-0.307
-0.324
-0.336
-0.349
-0.345
-0.309
-0.257
-0.184
-0.107
-0.025
0.066
0.119
0.132
0.139
0.145
0.15
0.153
0.154
0.155
0.154
0.151
0.145
0.135
0.123
0.109
0.095
0.081
0.069
0.056
0.041
0.027
0.016
0.009
0.005
0.003
0.004
0.005
0.009
0.015
0.026
0.038
0.053
0.116
0.243
0.424
0.652
0.908
1.148
1.304
1.32
1.239
0.987
0.652
0.314
0.048
-0.058
-0.093
-0.058
-0.001
0.058
0.084
0.098
0.109
0.117
0.122
0.123
0.121
0.114
0.103
0.089
0.076
0.062
0.045
0.026
0.008
-0.008
-0.024
-0.041
-0.062
-0.09
-0.122
-0.16
-0.193
-0.225
-0.244
-0.249
-0.252
-0.254
-0.256
-0.256
-0.257
-0.258
-0.258
-0.26
-0.261
-0.261
-0.26
-0.257
-0.253
-0.246
-0.239
-0.23
-0.221
-0.212
-0.203
-0.194
-0.182
-0.163
-0.141
-0.12
-0.099
-0.077
-0.057
-0.037
-0.017
0.002
0.021
0.039
0.053
0.062
0.07
0.078
0.086
0.093
0.099
0.105
0.109
0.112
0.115
0.117
0.117
0.114
0.108
0.101
0.092
0.083
0.073
0.062
0.051
0.041
0.031
0.022
0.012
0.0
-0.013
-0.027
-0.039
-0.049
-0.058
-0.066
-0.075
-0.084
-0.092
-0.101
-0.109
-0.117
-0.125
-0.133
-0.14
-0.146
-0.152
-0.158
-0.165
-0.172
-0.18
-0.191
-0.204
-0.22
-0.237
-0.256
-0.276
-0.296
-0.318
-0.34
-0.366
-0.39
-0.405
-0.416
-0.425
-0.432
-0.44
-0.448
-0.457
-0.466
-0.474
-0.481
-0.487
-0.492
-0.497
-0.505
-0.514
-0.53
-0.545
-0.552
-0.545
-0.527
-0.502
-0.461
-0.388
-0.309
-0.227
-0.167
-0.129
-0.098
-0.071
-0.047
-0.026
-0.004
0.02
0.048
0.084
0.129
0.175
0.192
0.2
0.207
0.213
0.219
0.224
0.228
0.232
0.238
0.243
0.247
0.25
0.252
0.252
0.249
0.245
0.24
0.235
0.23
0.225
0.221
0.218
0.215
0.212
0.208
0.203
0.197
0.189
0.18
0.17
0.16
0.151
0.142
0.136
0.131
0.127
0.125
0.123
0.122
0.12
0.119
0.118
0.119
0.12
0.123
0.127
0.131
0.135
0.139
0.142
0.145
0.149
0.153
0.157
0.161
0.165
0.17
0.175
0.183
0.193
0.202
0.224
0.291
0.415
0.579
0.781
0.996
1.148
1.199
1.135
0.94
0.595
0.229
-0.072
-0.232
-0.291
-0.293
-0.259
-0.228
-0.2
-0.172
-0.145
-0.127
-0.113
-0.101
-0.09
-0.079
-0.068
-0.059
-0.05
-0.045
-0.041
-0.038
-0.036
-0.033
-0.03
-0.026
-0.023
-0.019
-0.015
-0.011
-0.007
-0.003
0.0
0.004
0.008
0.012
0.016
0.021
0.026
0.031
0.036
0.04
0.043
0.044
0.045
0.046
0.046
0.046
0.047
0.048
0.05
0.052
0.055
0.059
0.064
0.068
0.072
0.075
0.078
0.081
0.085
0.09
0.095
0.101
0.107
0.114
0.121
0.128
0.134
0.138
0.137
0.133
0.124
0.111
0.095
0.077
0.052
0.006
-0.042
-0.081
-0.112
-0.134
-0.15
-0.163
-0.171
-0.177
-0.181
-0.186
-0.19
-0.195
-0.201
-0.207
-0.214
-0.222
-0.231
-0.243
-0.263
-0.301
-0.338
-0.392
-0.434
-0.452
-0.464
-0.46
-0.428
-0.383
-0.318
-0.249
-0.178
-0.103
-0.033
0.004
0.024
0.038
0.052
0.065
0.076
0.088
0.104
0.126
0.149
0.173
0.202
0.236
0.263
0.277
0.289
0.3
0.306
0.308
0.303
0.293
0.28
0.264
0.241
0.205
0.173
0.146
0.121
0.11
0.105
0.1
0.093
0.09
0.103
0.133
0.162
0.195
0.211
0.218
0.224
0.23
0.235
0.238
0.231
0.212
0.193
0.181
0.172
0.164
0.155
0.148
0.14
0.133
0.126
0.121
0.117
0.114
0.111
0.108
0.103
0.098
0.089
0.072
0.054
0.032
0.013
-0.003
-0.021
-0.041
-0.062
-0.083
-0.104
-0.124
-0.143
-0.161
-0.179
-0.196
-0.214
-0.227
-0.242
-0.298
-0.382
-0.471
-0.511
-0.53
-0.543
-0.551
-0.549
-0.536
-0.51
-0.437
-0.342
-0.255
-0.228
-0.214
-0.206
-0.199
-0.193
-0.189
-0.185
-0.182
-0.179
-0.176
-0.172
-0.168
-0.163
-0.155
-0.146
-0.107
-0.029
0.086
0.238
0.42
0.624
0.829
0.979
1.029
0.982
0.843
0.566
0.25
-0.017
-0.151
-0.195
-0.174
-0.114
-0.034
0.044
0.129
0.179
0.234
0.29
0.346
0.398
0.442
0.468
0.441
0.357
0.246
0.167
0.139
0.129
0.137
0.162
0.23
0.31
0.411
0.448
0.463
0.473
0.477
0.468
0.445
0.38
0.287
0.184
0.087
0.009
-0.015
-0.03
-0.037
-0.034
-0.021
-0.001
0.034
0.074
0.09
0.101
0.105
0.089
0.061
0.046
0.035
0.027
0.019
0.013
0.006
0.0
-0.007
-0.012
-0.016
-0.02
-0.023
-0.027
-0.034
-0.045
-0.056
-0.055
-0.042
-0.021
0.004
0.04
0.075
0.121
0.175
0.226
0.288
0.335
0.363
0.382
0.391
0.396
0.4
0.403
0.407
0.41
0.413
0.414
0.411
0.399
0.38
0.359
0.33
0.282
0.249
0.169
0.052
-0.122
-0.336
-0.547
-0.681
-0.691
-0.605
-0.383
-0.126
0.086
0.116
0.123
0.127
0.129
0.13
0.13
0.131
0.131
0.131
0.131
0.13
0.129
0.126
0.123
0.123
0.124
0.124
0.124
0.123
0.122
0.125
0.135
0.147
0.158
0.164
0.169
0.174
0.18
0.185
0.189
0.192
0.194
0.195
0.197
0.198
0.199
0.201
0.201
0.201
0.201
0.2
0.199
0.197
0.196
0.194
0.192
0.19
0.189
0.188
0.187
0.186
0.185
0.182
0.179
0.176
0.173
0.17
0.167
0.164
0.16
0.157
0.155
0.154
0.153
0.152
0.15
0.146
0.142
0.136
0.131
0.124
0.117
0.11
0.103
0.097
0.093
0.088
0.084
0.079
0.073
0.067
0.059
0.049
0.04
0.03
0.02
0.01
0.002
-0.004
-0.01
-0.015
-0.02
-0.025
-0.029
-0.033
-0.037
-0.041
-0.044
-0.049
-0.053
-0.057
-0.061
-0.065
-0.07
-0.075
-0.081
-0.088
-0.1
-0.112
-0.123
-0.134
-0.143
-0.157
-0.175
-0.176
-0.152
-0.09
0.034
0.214
0.444
0.694
0.909
0.99
0.972
0.795
0.487
0.131
-0.195
-0.434
-0.544
-0.585
-0.586
-0.557
-0.525
-0.494
-0.475
-0.467
-0.462
-0.458
-0.454
-0.451
-0.446
-0.441
-0.437
-0.432
-0.429
-0.426
-0.424
-0.421
-0.418
-0.414
-0.409
-0.399
-0.389
-0.384
-0.389
-0.402
-0.416
-0.428
-0.441
-0.452
-0.459
-0.458
-0.452
-0.441
-0.427
-0.411
-0.388
-0.366
-0.345
-0.333
-0.323
-0.314
-0.308
-0.303
-0.299
-0.297
-0.297
-0.298
-0.3
-0.303
-0.308
-0.313
-0.319
-0.326
-0.335
-0.348
-0.36
-0.36
-0.351
-0.334
-0.307
-0.261
-0.213
-0.163
-0.106
-0.059
-0.027
-0.002
0.027
0.051
0.069
0.083
0.094
0.103
0.109
0.114
0.118
0.122
0.126
0.128
0.129
0.128
0.126
0.122
0.115
0.107
0.098
0.084
0.057
0.034
0.012
-0.009
-0.037
-0.059
-0.076
-0.09
-0.102
-0.112
-0.125
-0.141
-0.158
-0.167
-0.173
-0.178
-0.183
-0.185
-0.184
-0.18
-0.175
-0.17
-0.165
-0.161
-0.158
-0.153
-0.149
-0.146
-0.143
-0.144
-0.146
-0.15
-0.154
-0.159
-0.164
-0.168
-0.174
-0.18
-0.185
-0.188
-0.187
-0.182
-0.176
-0.169
-0.163
-0.159
-0.156
-0.152
-0.148
-0.144
-0.141
-0.137
-0.133
-0.128
-0.123
-0.119
-0.115
-0.112
-0.108
-0.103
-0.094
-0.076
-0.06
-0.045
-0.03
-0.014
0.002
0.018
0.031
0.041
0.05
0.058
0.069
0.08
0.09
0.096
0.101
0.105
0.109
0.112
0.115
0.118
0.121
0.124
0.127
0.131
0.134
0.136
0.138
0.138
0.139
0.14
0.141
0.141
0.142
0.145
0.148
0.151
0.154
0.154
0.153
0.151
0.149
0.147
0.145
0.141
0.138
0.139
0.148
0.162
0.177
0.194
0.212
0.231
0.247
0.263
0.275
0.282
0.286
0.288
0.291
0.293
0.295
0.299
0.306
0.315
0.332
0.387
0.47
0.588
0.748
0.943
1.155
1.343
1.435
1.428
1.301
1.037
0.726
0.445
0.256
0.189
0.186
0.233
0.328
0.439
0.548
0.644
0.732
0.81
0.874
0.898
0.916
0.932
0.95
0.968
0.993
1.022
1.052
1.087
1.129
1.169
1.233
1.293
1.353
1.415
1.479
1.543
1.607
1.668
1.727
1.786
1.822
1.86
1.894
1.92
1.939
1.958
1.983
2.017
2.042
2.059
2.066
2.06
2.043
2.019
1.981
1.939
1.903
1.876
1.858
1.881
1.953
2.08
2.228
2.371
2.501
2.609
2.691
2.718
2.696
2.626
2.462
2.268
2.058
1.855
1.698
1.617
1.592
1.577
1.566
1.555
1.516
1.452
1.383
1.345
1.32
1.305
1.288
1.27
1.257
1.244
1.233
1.229
1.234
1.246
1.259
1.269
1.28
1.29
1.297
1.3
1.298
1.292
1.281
1.269
1.25
1.22
1.2
1.173
1.141
1.091
1.031
0.97
0.902
0.857
0.803
0.755
0.709
0.665
0.623
0.585
0.55
0.515
0.479
0.44
0.405
0.379
0.356
0.333
0.31
0.292
0.274
0.256
0.239
0.194
0.135
0.063
-0.015
-0.094
-0.168
-0.241
-0.318
-0.396
-0.473
-0.547
-0.612
-0.672
-0.735
-0.803
-0.878
-0.958
-1.033
-1.1
-1.165
-1.224
-1.275
-1.322
-1.374
-1.433
-1.49
-1.544
-1.581
-1.622
-1.663
-1.688
-1.702
-1.713
-1.717
-1.716
-1.713
-1.708
-1.703
-1.696
-1.697
-1.713
-1.732
-1.75
-1.758
-1.762
-1.766
-1.768
-1.768
-1.76
-1.746
-1.723
-1.69
-1.672
-1.66
-1.655
-1.659
-1.672
-1.691
-1.711
-1.721
-1.727
-1.726
-1.71
-1.687
-1.655
-1.623
-1.592
-1.54
-1.491
-1.474
-1.465
-1.464
-1.47
-1.48
-1.497
-1.523
-1.549
-1.579
-1.616
-1.65
-1.682
-1.714
-1.747
-1.775
-1.795
-1.81
-1.829
-1.849
-1.866
-1.873
-1.885
-1.882
-1.845
-1.77
-1.654
-1.495
-1.294
-1.086
-0.913
-0.842
-0.855
-0.992
-1.265
-1.589
-1.873
-2.059
-2.123
-2.123
-2.056
-1.978
-1.912
-1.869
-1.854
-1.848
-1.853
-1.866
-1.885
-1.915
-1.936
-1.949
-1.964
-1.979
-1.994
-2.01
-2.028
-2.045
-2.057
-2.065
-2.072
-2.078
-2.082
-2.084
-2.084
-2.082
-2.079
-2.075
-2.069
-2.062
-2.052
-2.032
-2.013
-1.993
-1.973
-1.953
-1.926
-1.895
-1.865
-1.838
-1.812
-1.788
-1.766
-1.742
-1.716
-1.687
-1.655
-1.624
-1.594
-1.563
-1.532
-1.5
-1.447
-1.397
-1.348
-1.296
-1.24
-1.175
-1.103
-1.029
-0.957
-0.892
-0.839
-0.789
-0.732
-0.666
-0.6
-0.535
-0.472
-0.412
-0.355
-0.293
-0.222
-0.142
-0.058
0.022
0.098
0.172
0.24
0.303
0.365
0.427
0.488
0.526
0.566
0.599
0.644
0.699
0.769
0.846
0.924
0.994
1.057
1.1
1.15
1.198
1.246
1.288
1.323
1.357
1.39
1.425
1.462
1.499
1.537
1.571
1.6
1.636
1.676
1.722
1.775
1.819
1.883
1.947
2.015
2.057
2.103
2.146
2.186
2.227
2.266
2.309
2.349
2.379
2.4
2.427
2.46
2.476
2.485
2.492
2.498
2.501
2.502
2.499
2.492
2.482
2.469
2.447
2.411
2.379
2.347
2.317
2.287
2.256
2.222
2.185
2.148
2.117
2.092
2.069
2.037
1.999
1.961
1.924
1.889
1.855
1.825
1.791
1.754
1.714
1.677
1.65
1.624
1.589
1.553
1.525
1.495
1.464
1.435
1.405
1.378
1.339
1.284
1.207
1.121
1.022
0.91
0.794
0.675
0.551
0.42
0.293
0.173
0.063
-0.041
-0.149
-0.263
-0.371
-0.472
-0.572
-0.671
-0.766
-0.854
-0.938
-1.014
-1.082
-1.143
-1.205
-1.272
-1.312
-1.336
-1.349
-1.359
-1.364
-1.364
-1.357
-1.347
-1.34
-1.333
-1.326
-1.318
-1.308
-1.3
-1.294
-1.284
-1.243
-1.174
-1.079
-0.951
-0.788
-0.597
-0.4
-0.228
-0.109
-0.065
-0.068
-0.14
-0.281
-0.459
-0.639
-0.774
-0.811
-0.805
-0.735
-0.637
-0.524
-0.402
-0.267
-0.118
0.016
0.114
0.176
0.211
0.27
0.349
0.444
0.555
0.669
0.769
0.854
0.925
0.984
1.049
1.089
1.107
1.116
1.123
1.128
1.132
1.134
1.135
1.137
1.139
1.137
1.133
1.129
1.124
1.118
1.113
1.107
1.101
1.094
1.08
1.065
1.05
1.034
1.008
0.969
0.933
0.899
0.867
0.836
0.805
0.768
0.724
0.685
0.624
0.566
0.503
0.428
0.34
0.246
0.153
0.058
-0.032
-0.114
-0.189
-0.256
-0.317
-0.388
-0.463
-0.529
-0.593
-0.636
-0.686
-0.738
-0.79
-0.843
-0.887
-0.919
-0.946
-0.96
-0.966
-0.97
-0.973
-0.977
-0.984
-0.992
-1.0
-1.008
-1.019
-1.03
-1.047
-1.077
-1.103
-1.119
-1.131
-1.142
-1.15
-1.15
-1.142
-1.128
-1.11
-1.084
-1.046
-1.02
-0.999
-0.981
-0.96
-0.939
-0.918
-0.897
-0.88
-0.864
-0.845
-0.821
-0.797
-0.779
-0.767
-0.755
-0.74
-0.726
-0.712
-0.697
-0.679
-0.661
-0.645
-0.628
-0.606
-0.576
-0.547
-0.516
-0.489
-0.468
-0.439
-0.393
-0.344
-0.304
-0.27
-0.229
-0.175
-0.123
-0.041
0.035
0.117
0.172
0.232
0.288
0.345
0.401
0.445
0.475
0.493
0.504
0.51
0.523
0.544
0.574
0.61
0.645
0.662
0.672
0.678
0.684
0.691
0.699
0.702
0.7
0.693
0.685
0.678
0.671
0.661
0.651
0.643
0.632
0.617
0.606
0.592
0.575
0.556
0.535
0.517
0.507
0.504
0.503
0.502
0.5
0.495
0.491
0.49
0.493
0.492
0.486
0.476
0.465
0.453
0.44
0.422
0.404
0.391
0.382
0.375
0.373
0.374
0.376
0.377
0.374
0.372
0.37
0.371
0.369
0.366
0.364
0.365
0.37
0.382
0.397
0.474
0.607
0.781
0.989
1.207
1.387
1.454
1.44
1.295
1.022
0.692
0.364
0.107
-0.007
-0.046
-0.018
0.071
0.163
0.238
0.269
0.298
0.319
0.336
0.348
0.358
0.365
0.369
0.371
0.375
0.38
0.383
0.384
0.383
0.382
0.38
0.378
0.373
0.368
0.359
0.346
0.333
0.317
0.29
0.269
0.255
0.236
0.208
0.172
0.151
0.139
0.134
0.132
0.129
0.128
0.127
0.127
0.129
0.133
0.137
0.14
0.141
0.137
0.133
0.133
0.134
0.136
0.139
0.142
0.146
0.153
0.161
0.174
0.196
0.22
0.235
0.243
0.249
0.255
0.259
0.264
0.27
0.277
0.282
0.281
0.272
0.26
0.242
0.217
0.184
0.161
0.14
0.117
0.083
0.057
0.041
0.031
0.026
0.021
0.014
0.003
-0.01
-0.025
-0.044
-0.061
-0.073
-0.086
-0.109
-0.143
-0.175
-0.201
-0.228
-0.264
-0.303
-0.342
-0.39
-0.417
-0.433
-0.44
-0.446
-0.455
-0.469
-0.483
-0.493
-0.499
-0.506
-0.513
-0.525
-0.54
-0.553
-0.561
-0.564
-0.56
-0.549
-0.535
-0.518
-0.5
-0.484
-0.477
-0.472
-0.458
-0.442
-0.429
-0.42
-0.409
-0.396
-0.388
-0.381
-0.368
-0.35
-0.333
-0.319
-0.301
-0.272
-0.244
-0.223
-0.207
-0.191
-0.171
-0.146
-0.12
-0.097
-0.071
-0.044
-0.024
-0.012
-0.006
-0.006
-0.005
-0.007
-0.015
-0.022
-0.025
-0.019
-0.008
0.008
0.024
0.032
0.039
0.063
0.11
0.154
0.186
0.213
0.238
0.254
0.263
0.27
0.274
0.268
0.257
0.252
0.255
0.258
0.25
0.236
0.226
0.221
0.219
0.218
0.224
0.24
0.262
0.283
0.302
0.32
0.334
0.34
0.344
0.348
0.354
0.356
0.356
0.356
0.355
0.352
0.351
0.352
0.36
0.374
0.386
0.395
0.399
0.395
0.386
0.372
0.35
0.321
0.289
0.241
0.207
0.2
0.213
0.275
0.394
0.561
0.773
0.993
1.178
1.257
1.238
1.105
0.848
0.514
0.159
-0.143
-0.343
-0.408
-0.422
-0.401
-0.336
-0.239
-0.128
-0.071
-0.035
-0.013
-0.019
-0.055
-0.09
-0.117
-0.124
-0.107
-0.072
-0.022
0.05
0.113
0.157
0.179
0.19
0.2
0.21
0.212
0.202
0.184
0.17
0.155
0.123
0.059
0.012
-0.019
-0.036
-0.046
-0.048
-0.042
-0.028
-0.003
0.014
0.02
0.019
0.008
-0.01
-0.03
-0.038
-0.032
-0.028
-0.032
-0.035
-0.025
-0.005
0.012
0.021
0.031
0.048
0.064
0.073
0.079
0.088
0.099
0.104
0.107
0.113
0.124
0.135
0.142
0.153
0.166
0.175
0.186
0.199
0.21
0.216
0.211
0.202
0.198
0.188
0.171
0.147
0.113
0.063
0.029
0.0
-0.027
-0.065
-0.106
-0.147
-0.184
-0.217
-0.256
-0.295
-0.325
-0.332
-0.331
-0.332
-0.337
-0.344
-0.347
-0.345
-0.352
-0.362
-0.366
-0.362
-0.353
-0.349
-0.348
-0.342
-0.331
-0.322
-0.311
-0.295
-0.28
-0.272
-0.27
-0.271
-0.274
-0.283
-0.298
-0.311
-0.316
-0.316
-0.307
-0.299
-0.291
-0.283
-0.273
-0.262
-0.254
-0.247
-0.239
-0.228
-0.211
-0.191
-0.172
-0.157
-0.146
-0.137
-0.13
-0.126
-0.121
-0.12
-0.121
-0.124
-0.125
-0.119
-0.108
-0.097
-0.089
-0.083
-0.076
-0.066
-0.051
-0.039
-0.035
-0.039
-0.042
-0.041
-0.04
-0.041
-0.044
-0.05
-0.054
-0.051
-0.044
-0.038
-0.033
-0.027
-0.018
-0.007
0.004
0.013
0.02
0.032
0.047
0.054
0.042
0.009
-0.028
-0.055
-0.071
-0.079
-0.082
-0.083
-0.087
-0.092
-0.094
-0.094
-0.098
-0.109
-0.124
-0.139
-0.154
-0.165
-0.171
-0.174
-0.174
-0.167
-0.156
-0.147
-0.145
-0.146
-0.15
-0.153
-0.154
-0.159
-0.172
-0.189
-0.202
-0.21
-0.211
-0.204
-0.196
-0.183
-0.166
-0.137
-0.088
-0.039
0.009
0.09
0.195
0.353
0.57
0.813
1.037
1.176
1.188
1.117
0.889
0.581
0.262
-0.011
-0.199
-0.261
-0.275
-0.223
-0.145
-0.064
0.015
0.061
0.071
0.076
0.085
0.092
0.093
0.094
0.098
0.102
0.107
0.114
0.121
0.123
0.122
0.122
0.121
0.116
0.113
0.115
0.116
0.114
0.113
0.111
0.103
0.093
0.088
0.085
0.08
0.073
0.072
0.07
0.068
0.072
0.08
0.084
0.088
0.095
0.1
0.1
0.096
0.089
0.081
0.071
0.062
0.057
0.051
0.047
0.046
0.049
0.058
0.066
0.074
0.082
0.088
0.09
0.09
0.087
0.085
0.081
0.078
0.077
0.075
0.068
0.059
0.051
0.047
0.045
0.044
0.044
0.042
0.041
0.041
0.038
0.036
0.037
0.04
0.042
0.044
0.048
0.046
0.038
0.033
0.032
0.03
0.027
0.024
0.025
0.028
0.035
0.05
0.067
0.082
0.093
0.103
0.113
0.118
0.118
0.122
0.127
0.13
0.132
0.136
0.14
0.146
0.159
0.174
0.181
0.183
0.186
0.187
0.184
0.175
0.16
0.139
0.136
0.122
0.105
0.089
0.077
0.069
0.062
0.053
0.041
0.022
-0.009
-0.045
-0.072
-0.092
-0.111
-0.13
-0.148
-0.16
-0.169
-0.179
-0.189
-0.198
-0.207
-0.22
-0.238
-0.265
-0.308
-0.331
-0.343
-0.351
-0.35
-0.336
-0.314
-0.28
-0.23
-0.157
-0.064
0.002
0.021
0.037
0.046
0.052
0.057
0.062
0.067
0.071
0.075
0.081
0.098
0.14
0.179
0.211
0.246
0.262
0.273
0.282
0.291
0.298
0.302
0.306
0.309
0.312
0.313
0.312
0.309
0.303
0.296
0.287
0.277
0.267
0.255
0.242
0.229
0.217
0.206
0.2
0.199
0.203
0.209
0.217
0.226
0.236
0.25
0.263
0.27
0.266
0.252
0.233
0.209
0.179
0.156
0.138
0.119
0.101
0.102
0.128
0.193
0.304
0.461
0.655
0.87
1.073
1.192
1.196
1.104
0.855
0.525
0.191
-0.075
-0.198
-0.243
-0.259
-0.248
-0.221
-0.178
-0.121
-0.066
-0.026
-0.009
0.0
0.002
-0.002
-0.021
-0.041
-0.052
-0.06
-0.067
-0.074
-0.078
-0.079
-0.08
-0.081
-0.082
-0.083
-0.084
-0.086
-0.087
-0.089
-0.09
-0.092
-0.094
-0.098
-0.101
-0.105
-0.112
-0.121
-0.126
-0.126
-0.119
-0.107
-0.093
-0.083
-0.073
-0.062
-0.052
-0.044
-0.037
-0.031
-0.024
-0.016
-0.007
0.003
0.02
0.045
0.07
0.089
0.104
0.112
0.116
0.119
0.122
0.126
0.13
0.133
0.136
0.139
0.14
0.138
0.133
0.126
0.118
0.112
0.105
0.097
0.09
0.084
0.073
0.045
0.02
-0.001
-0.028
-0.058
-0.082
-0.101
-0.116
-0.133
-0.151
-0.179
-0.222
-0.269
-0.311
-0.35
-0.384
-0.414
-0.451
-0.477
-0.491
-0.503
-0.513
-0.523
-0.529
-0.532
-0.535
-0.537
-0.539
-0.541
-0.542
-0.538
-0.53
-0.52
-0.513
-0.509
-0.504
-0.498
-0.491
-0.484
-0.479
-0.474
-0.469
-0.467
-0.465
-0.462
-0.459
-0.454
-0.447
-0.433
-0.405
-0.376
-0.338
-0.292
-0.246
-0.198
-0.147
-0.095
-0.065
-0.052
-0.041
-0.031
-0.021
-0.013
-0.006
0.001
0.015
0.038
0.063
0.074
0.078
0.082
0.085
0.089
0.092
0.095
0.098
0.101
0.104
0.107
0.109
0.11
0.112
0.116
0.12
0.125
0.131
0.137
0.146
0.161
0.175
0.182
0.186
0.189
0.193
0.196
0.2
0.202
0.201
0.196
0.187
0.175
0.158
0.133
0.111
0.095
0.083
0.072
0.059
0.045
0.035
0.027
0.02
0.013
0.005
-0.001
-0.009
-0.016
-0.024
-0.033
-0.041
-0.049
-0.057
-0.065
-0.071
-0.076
-0.079
-0.082
-0.086
-0.091
-0.096
-0.1
-0.103
-0.104
-0.104
-0.103
-0.101
-0.099
-0.095
-0.09
-0.082
-0.074
-0.043
0.047
0.179
0.355
0.57
0.795
0.982
1.039
1.017
0.842
0.543
0.219
-0.055
-0.238
-0.298
-0.295
-0.252
-0.21
-0.16
-0.116
-0.075
-0.034
-0.007
0.007
0.021
0.035
0.05
0.071
0.098
0.124
0.141
0.153
0.162
0.17
0.177
0.184
0.189
0.194
0.199
0.203
0.206
0.208
0.209
0.207
0.2
0.191
0.18
0.17
0.159
0.148
0.135
0.124
0.116
0.11
0.105
0.098
0.09
0.08
0.068
0.056
0.039
0.011
-0.031
-0.053
-0.065
-0.074
-0.079
-0.081
-0.077
-0.069
-0.057
-0.042
-0.022
0.008
0.028
0.039
0.048
0.056
0.062
0.066
0.066
0.063
0.059
0.052
0.044
0.03
-0.004
-0.044
-0.068
-0.072
-0.074
-0.076
-0.051
-0.011
0.033
0.08
0.131
0.193
0.232
0.245
0.253
0.259
0.264
0.265
0.262
0.255
0.248
0.242
0.236
0.23
0.223
0.215
0.208
0.199
0.19
0.18
0.168
0.151
0.135
0.119
0.105
0.095
0.088
0.081
0.075
0.07
0.066
0.063
0.061
0.06
0.061
0.064
0.069
0.075
0.084
0.094
0.103
0.113
0.126
0.152
0.173
0.19
0.2
0.207
0.214
0.22
0.224
0.227
0.225
0.22
0.211
0.201
0.191
0.18
0.166
0.151
0.136
0.121
0.108
0.094
0.08
0.067
0.054
0.04
0.027
0.02
0.014
0.007
0.002
-0.002
-0.007
-0.01
-0.012
-0.014
-0.014
-0.014
-0.012
-0.009
-0.006
-0.001
0.003
0.009
0.016
0.024
0.032
0.046
0.061
0.071
0.079
0.087
0.095
0.101
0.106
0.111
0.114
0.117
0.12
0.122
0.124
0.125
0.126
0.127
0.131
0.134
0.136
0.129
0.113
0.097
0.088
0.082
0.075
0.069
0.063
0.057
0.052
0.048
0.046
0.044
0.042
0.04
0.038
0.038
0.039
0.04
0.041
0.042
0.042
0.042
0.042
0.043
0.041
0.038
0.043
0.077
0.169
0.312
0.508
0.738
0.958
1.095
1.106
1.023
0.765
0.411
0.041
-0.257
-0.394
-0.44
-0.412
-0.368
-0.314
-0.267
-0.237
-0.229
-0.223
-0.217
-0.214
-0.223
-0.239
-0.258
-0.282
-0.307
-0.321
-0.328
-0.334
-0.339
-0.345
-0.353
-0.361
-0.369
-0.376
-0.384
-0.396
-0.416
-0.45
-0.476
-0.495
-0.511
-0.521
-0.521
-0.511
-0.491
-0.43
-0.352
-0.302
-0.247
-0.193
-0.138
-0.082
-0.04
-0.013
0.009
0.027
0.038
0.046
0.054
0.061
0.066
0.07
0.072
0.073
0.073
0.073
0.073
0.073
0.074
0.075
0.077
0.079
0.081
0.084
0.087
0.09
0.094
0.099
0.104
0.11
0.116
0.122
0.131
0.141
0.148
0.148
0.143
0.135
0.124
0.112
0.095
0.075
0.05
0.019
-0.016
-0.048
-0.08
-0.112
-0.148
-0.176
-0.198
-0.218
-0.24
-0.261
-0.271
-0.277
-0.284
-0.289
-0.294
-0.299
-0.304
-0.308
-0.312
-0.314
-0.317
-0.32
-0.323
-0.325
-0.325
-0.324
-0.321
-0.318
-0.314
-0.31
-0.304
-0.298
-0.292
-0.286
-0.281
-0.278
-0.275
-0.273
-0.27
-0.268
-0.266
-0.264
-0.263
-0.261
-0.257
-0.253
-0.249
-0.245
-0.242
-0.239
-0.237
-0.235
-0.233
-0.23
-0.228
-0.225
-0.221
-0.217
-0.21
-0.2
-0.183
-0.163
-0.147
-0.132
-0.117
-0.104
-0.091
-0.079
-0.068
-0.058
-0.048
-0.038
-0.026
-0.01
0.013
0.035
0.055
0.065
0.072
0.08
0.087
0.093
0.099
0.103
0.106
0.108
0.109
0.109
0.108
0.106
0.103
0.099
0.094
0.089
0.082
0.075
0.067
0.059
0.048
0.025
0.002
-0.016
-0.035
-0.052
-0.069
-0.085
-0.101
-0.114
-0.128
-0.148
-0.176
-0.206
-0.236
-0.266
-0.297
-0.315
-0.326
-0.335
-0.341
-0.348
-0.355
-0.362
-0.369
-0.377
-0.387
-0.406
-0.437
-0.449
-0.459
-0.469
-0.446
-0.374
-0.264
-0.105
0.102
0.356
0.639
0.914
1.119
1.158
1.126
0.917
0.6
0.263
-0.011
-0.131
-0.175
-0.176
-0.146
-0.101
-0.052
0.017
0.094
0.183
0.214
0.227
0.236
0.231
0.193
0.173
0.159
0.148
0.138
0.13
0.124
0.121
0.119
0.12
0.123
0.129
0.137
0.146
0.156
0.168
0.179
0.192
0.206
0.22
0.232
0.243
0.253
0.264
0.274
0.286
0.299
0.313
0.325
0.338
0.351
0.362
0.371
0.379
0.387
0.394
0.399
0.404
0.407
0.409
0.408
0.406
0.403
0.398
0.392
0.385
0.375
0.365
0.351
0.325
0.3
0.275
0.251
0.225
0.2
0.176
0.155
0.136
0.116
0.095
0.075
0.058
0.043
0.03
0.019
0.011
0.005
0.0
-0.003
-0.005
-0.007
-0.009
-0.011
-0.013
-0.015
-0.016
-0.018
-0.019
-0.019
-0.02
-0.02
-0.019
-0.017
-0.016
-0.014
-0.012
-0.01
-0.009
-0.007
-0.005
-0.004
-0.002
0.0
0.002
0.005
0.008
0.011
0.015
0.019
0.024
0.03
0.036
0.042
0.049
0.056
0.069
0.085
0.099
0.107
0.114
0.12
0.125
0.129
0.134
0.138
0.141
0.143
0.146
0.148
0.149
0.148
0.145
0.14
0.133
0.123
0.112
0.099
0.08
0.041
0.004
-0.027
-0.055
-0.081
-0.108
-0.133
-0.159
-0.183
-0.205
-0.217
-0.227
-0.235
-0.242
-0.247
-0.249
-0.25
-0.248
-0.243
-0.236
-0.228
-0.22
-0.212
-0.205
-0.198
-0.19
-0.182
-0.173
-0.165
-0.156
-0.148
-0.142
-0.138
-0.136
-0.135
-0.134
-0.135
-0.135
-0.135
-0.135
-0.134
-0.131
-0.127
-0.123
-0.117
-0.113
-0.108
-0.104
-0.099
-0.094
-0.089
-0.085
-0.08
-0.075
-0.068
-0.061
-0.051
-0.041
-0.031
-0.02
-0.009
0.0
0.009
0.017
0.024
0.029
0.034
0.039
0.045
0.051
0.057
0.064
0.072
0.077
0.083
0.089
0.096
0.103
0.113
0.164
0.261
0.411
0.61
0.844
1.081
1.245
1.301
1.243
1.064
0.739
0.383
0.073
-0.129
-0.177
-0.194
-0.199
-0.186
-0.157
-0.111
-0.051
-0.02
-0.001
0.01
0.013
0.003
-0.013
-0.03
-0.038
-0.045
-0.052
-0.058
-0.062
-0.067
-0.073
-0.078
-0.083
-0.088
-0.092
-0.096
-0.099
-0.101
-0.104
-0.105
-0.106
-0.106
-0.105
-0.104
-0.102
-0.1
-0.098
-0.095
-0.091
-0.087
-0.084
-0.081
-0.078
-0.074
-0.07
-0.065
-0.059
-0.053
-0.047
-0.041
-0.031
-0.008
0.016
0.036
0.054
0.069
0.081
0.093
0.106
0.122
0.139
0.156
0.17
0.183
0.196
0.208
0.219
0.228
0.236
0.243
0.25
0.257
0.263
0.271
0.278
0.285
0.29
0.292
0.29
0.286
0.279
0.27
0.259
0.244
0.216
0.188
0.158
0.129
0.098
0.076
0.059
0.046
0.034
0.025
0.015
0.004
-0.01
-0.028
-0.05
-0.076
-0.105
-0.127
-0.146
-0.163
-0.177
-0.19
-0.198
-0.204
-0.209
-0.214
-0.217
-0.217
-0.213
-0.206
-0.195
-0.182
-0.16
-0.128
-0.125
-0.123
-0.121
-0.15
-0.175
-0.192
-0.203
-0.206
-0.202
-0.192
-0.175
-0.124
-0.055
0.031
0.112
0.15
0.167
0.178
0.186
0.192
0.195
0.195
0.191
0.186
0.181
0.176
0.168
0.16
0.16
0.167
0.176
0.184
0.192
0.199
0.201
0.195
0.181
0.165
0.146
0.119
0.107
0.101
0.097
0.094
0.092
0.091
0.091
0.093
0.098
0.106
0.116
0.131
0.154
0.167
0.172
0.176
0.181
0.185
0.188
0.189
0.19
0.19
0.19
0.19
0.19
0.188
0.185
0.18
0.174
0.169
0.163
0.156
0.149
0.138
0.117
0.096
0.074
0.048
0.018
-0.002
-0.023
-0.044
-0.071
-0.088
-0.099
-0.108
-0.115
-0.122
-0.129
-0.135
-0.142
-0.149
-0.161
-0.179
-0.192
-0.2
-0.212
-0.224
-0.204
-0.142
-0.05
0.089
0.278
0.498
0.72
0.903
0.964
0.946
0.785
0.502
0.164
-0.159
-0.396
-0.48
-0.508
-0.479
-0.393
-0.303
-0.23
-0.185
-0.137
-0.092
-0.059
-0.039
-0.03
-0.025
-0.02
-0.016
-0.012
-0.011
-0.011
-0.015
-0.019
-0.021
-0.023
-0.026
-0.029
-0.031
-0.032
-0.031
-0.029
-0.026
-0.023
-0.021
-0.02
-0.018
-0.016
-0.015
-0.014
-0.014
-0.014
-0.015
-0.015
-0.015
-0.014
-0.013
-0.013
-0.013
-0.013
-0.013
-0.015
-0.017
-0.019
-0.023
-0.027
-0.031
-0.035
-0.038
-0.043
-0.048
-0.054
-0.067
-0.101
-0.128
-0.146
-0.159
-0.172
-0.187
-0.201
-0.221
-0.291
-0.427
-0.576
-0.705
-0.804
-0.87
-0.891
-0.876
-0.833
-0.717
-0.559
-0.384
-0.268
-0.226
-0.212
-0.22
-0.24
-0.268
-0.33
-0.486
-0.758
-1.086
-1.366
-1.478
-1.363
-1.044
-0.612
-0.192
0.089
0.148
0.131
0.087
0.07
0.057
0.047
0.04
0.034
0.028
0.023
0.018
0.014
0.01
0.007
0.005
0.003
0.002
0.0
-0.004
-0.007
-0.009
-0.01
-0.01
-0.008
-0.004
0.0
0.007
0.015
0.023
0.032
0.04
0.05
0.061
0.071
0.077
0.08
0.083
0.084
0.086
0.089
0.092
0.095
0.096
0.095
0.087
0.075
0.063
0.051
0.037
0.023
0.008
-0.007
-0.02
-0.027
-0.032
-0.035
-0.038
-0.041
-0.042
-0.044
-0.046
-0.048
-0.05
-0.053
-0.055
-0.057
-0.059
-0.061
-0.064
-0.067
-0.069
-0.072
-0.075
-0.078
-0.081
-0.084
-0.087
-0.089
-0.091
-0.093
-0.094
-0.096
-0.097
-0.099
-0.101
-0.103
-0.105
-0.106
-0.107
-0.109
-0.11
-0.111
-0.111
-0.111
-0.11
-0.11
-0.109
-0.109
-0.108
-0.108
-0.107
-0.107
-0.106
-0.106
-0.106
-0.105
-0.105
-0.105
-0.105
-0.103
-0.102
-0.1
-0.098
-0.096
-0.091
-0.085
-0.077
-0.071
-0.063
-0.05
-0.006
0.091
0.245
0.457
0.71
0.958
1.128
1.148
1.078
0.828
0.496
0.162
-0.107
-0.272
-0.302
-0.312
-0.285
-0.239
-0.195
-0.159
-0.125
-0.11
-0.101
-0.094
-0.09
-0.089
-0.091
-0.096
-0.105
-0.116
-0.13
-0.153
-0.178
-0.205
-0.231
-0.253
-0.268
-0.281
-0.289
-0.29
-0.28
-0.266
-0.251
-0.233
-0.219
-0.208
-0.196
-0.182
-0.182
-0.194
-0.203
-0.212
-0.217
-0.217
-0.208
-0.191
-0.164
-0.126
-0.068
0.009
0.088
0.148
0.183
0.216
0.251
0.28
0.302
0.32
0.331
0.339
0.345
0.353
0.362
0.373
0.384
0.393
0.403
0.413
0.421
0.423
0.421
0.415
0.405
0.392
0.368
0.322
0.284
0.256
0.235
0.209
0.18
0.154
0.126
0.11
0.102
0.095
0.091
0.089
0.092
0.099
0.109
0.118
0.124
0.131
0.137
0.143
0.149
0.153
0.156
0.157
0.158
0.158
0.158
0.158
0.159
0.159
0.161
0.162
0.162
0.162
0.16
0.157
0.153
0.149
0.145
0.141
0.135
0.128
0.12
0.104
0.079
0.061
0.049
0.036
0.02
-0.025
-0.077
-0.105
-0.124
-0.136
-0.144
-0.149
-0.153
-0.156
-0.158
-0.16
-0.161
-0.162
-0.161
-0.158
-0.154
-0.149
-0.142
-0.131
-0.127
-0.125
-0.123
-0.121
-0.12
-0.119
-0.12
-0.12
-0.122
-0.124
-0.126
-0.128
-0.13
-0.133
-0.137
-0.14
-0.14
-0.135
-0.125
-0.112
-0.088
-0.052
-0.025
-0.005
0.01
0.021
0.028
0.033
0.038
0.042
0.046
0.049
0.052
0.055
0.058
0.06
0.062
0.065
0.067
0.07
0.073
0.076
0.079
0.083
0.087
0.095
0.101
0.101
0.095
0.086
0.077
0.066
0.054
0.04
0.016
-0.016
-0.047
-0.078
-0.109
-0.138
-0.168
-0.199
-0.23
-0.263
-0.286
-0.298
-0.308
-0.316
-0.323
-0.334
-0.348
-0.354
-0.359
-0.364
-0.365
-0.359
-0.341
-0.292
-0.209
-0.088
0.068
0.242
0.405
0.535
0.607
0.613
0.571
0.437
0.24
0.012
-0.208
-0.382
-0.472
-0.483
-0.454
-0.379
-0.294
-0.211
-0.142
-0.088
-0.057
-0.036
-0.026
-0.017
-0.008
0.0
0.033
0.078
0.066
-0.035
-0.289
-0.586
-0.831
-0.915
-0.905
-0.77
-0.575
-0.375
-0.186
-0.018
0.102
0.13
0.141
0.142
0.14
0.14
0.139
0.139
0.139
0.139
0.142
0.146
0.15
0.153
0.157
0.161
0.168
0.178
0.187
0.191
0.194
0.197
0.201
0.205
0.208
0.21
0.212
0.214
0.216
0.218
0.218
0.218
0.217
0.215
0.214
0.212
0.21
0.207
0.204
0.201
0.198
0.195
0.188
0.17
0.156
0.142
0.127
0.109
0.084
0.053
0.023
-0.006
-0.031
-0.049
-0.069
-0.086
-0.101
-0.11
-0.115
-0.12
-0.123
-0.126
-0.132
-0.139
-0.151
-0.193
-0.281
-0.413
-0.595
-0.823
-1.083
-1.338
-1.53
-1.598
-1.496
-1.236
-0.888
-0.526
-0.226
-0.039
-0.009
-0.001
0.004
0.01
0.016
0.024
0.037
0.053
0.036
0.009
-0.019
-0.046
-0.076
-0.095
-0.105
-0.111
-0.112
-0.107
-0.097
-0.085
-0.077
-0.068
-0.059
-0.052
-0.049
-0.051
-0.055
-0.06
-0.065
-0.071
-0.08
-0.088
-0.088
-0.08
-0.066
-0.042
-0.008
0.008
0.019
0.026
0.029
0.027
0.019
0.007
-0.013
-0.049
-0.072
-0.084
-0.092
-0.1
-0.107
-0.112
-0.12
-0.135
-0.168
-0.238
-0.307
-0.327
-0.334
-0.339
-0.316
-0.278
-0.237
-0.169
-0.083
0.014
0.1
0.149
0.163
0.173
0.184
0.193
0.205
0.228
0.264
0.29
0.31
0.328
0.344
0.359
0.36
0.346
0.307
0.269
0.227
0.202
0.187
0.18
0.175
0.17
0.164
0.159
0.155
0.149
0.135
0.111
0.096
0.088
0.082
0.08
0.082
0.088
0.095
0.108
0.129
0.151
0.179
0.238
0.341
0.489
0.67
0.867
1.053
1.18
1.194
1.139
0.943
0.666
0.371
0.13
-0.015
-0.035
-0.024
0.054
0.138
0.209
0.259
0.301
0.323
0.339
0.351
0.351
0.337
0.318
0.291
0.242
0.194
0.181
0.178
0.176
0.177
0.185
0.192
0.197
0.2
0.2
0.195
0.184
0.151
0.104
0.077
0.052
0.027
0.003
-0.024
-0.057
-0.09
-0.111
-0.123
-0.131
-0.135
-0.133
-0.126
-0.117
-0.103
-0.075
-0.052
-0.037
-0.025
-0.015
-0.005
0.003
0.011
0.017
0.023
0.03
0.039
0.049
0.061
0.08
0.105
0.125
0.14
0.155
0.168
0.179
0.185
0.188
0.19
0.192
0.194
0.195
0.195
0.193
0.187
0.18
0.173
0.164
0.152
0.141
0.131
0.116
0.093
0.082
0.079
0.076
0.074
0.072
0.07
0.069
0.067
0.066
0.065
0.064
0.064
0.063
0.062
0.061
0.059
0.049
0.013
-0.04
-0.104
-0.163
-0.212
-0.24
-0.256
-0.264
-0.269
-0.274
-0.28
-0.285
-0.289
-0.296
-0.311
-0.337
-0.353
-0.364
-0.369
-0.369
-0.36
-0.345
-0.322
-0.296
-0.285
-0.281
-0.277
-0.273
-0.268
-0.262
-0.255
-0.247
-0.234
-0.214
-0.2
-0.187
-0.173
-0.16
-0.149
-0.139
-0.129
-0.118
-0.107
-0.097
-0.087
-0.075
-0.057
-0.034
-0.015
0.008
0.025
0.034
0.04
0.045
0.049
0.053
0.058
0.065
0.073
0.083
0.091
0.096
0.101
0.107
0.114
0.121
0.13
0.15
0.176
0.193
0.207
0.222
0.257
0.298
0.331
0.34
0.347
0.355
0.363
0.37
0.375
0.38
0.386
0.39
0.393
0.393
0.391
0.386
0.38
0.375
0.371
0.365
0.358
0.351
0.345
0.338
0.327
0.307
0.297
0.292
0.288
0.285
0.282
0.28
0.277
0.274
0.271
0.269
0.266
0.261
0.251
0.223
0.199
0.182
0.176
0.18
0.193
0.227
0.311
0.443
0.614
0.806
0.992
1.129
1.165
1.068
0.848
0.545
0.212
-0.078
-0.279
-0.335
-0.354
-0.342
-0.308
-0.255
-0.175
-0.127
-0.126
-0.172
-0.238
-0.271
-0.283
-0.286
-0.282
-0.273
-0.245
-0.204
-0.169
-0.16
-0.152
-0.143
-0.131
-0.088
-0.034
0.01
0.051
0.09
0.127
0.176
0.243
0.304
0.341
0.356
0.372
0.393
0.423
0.443
0.455
0.463
0.466
0.463
0.456
0.448
0.441
0.435
0.43
0.425
0.421
0.418
0.414
0.409
0.391
0.346
0.289
0.213
0.125
0.043
-0.031
-0.106
-0.188
-0.276
-0.361
-0.431
-0.501
-0.577
-0.643
-0.698
-0.749
-0.767
-0.775
-0.771
-0.757
-0.75
-0.742
-0.734
-0.707
-0.657
-0.591
-0.5
-0.407
-0.365
-0.35
-0.368
-0.42
-0.477
-0.562
-0.697
-0.869
-1.035
-1.134
-1.148
-1.115
-1.016
-0.894
-0.836
-0.815
-0.814
-0.832
-0.879
-1.006
-1.147
-1.205
-1.196
-1.1
-0.967
-0.852
-0.748
-0.648
-0.582
-0.517
-0.387
-0.255
-0.232
-0.224
-0.219
-0.22
-0.232
-0.255
-0.327
-0.489
-0.7
-0.928
-1.078
-1.098
-1.052
-0.973
-0.928
-0.914
-0.927
-0.964
-1.048
-1.175
-1.378
-1.657
-1.946
-2.16
-2.222
-2.221
-2.155
-2.068
-1.985
-1.905
-1.825
-1.725
-1.604
-1.509
-1.487
-1.484
-1.495
-1.567
-1.658
-1.75
-1.82
-1.844
-1.863
-1.806
-1.674
-1.498
-1.313
-1.119
-0.912
-0.65
-0.28
0.197
0.709
1.133
1.362
1.428
1.342
1.178
1.074
1.058
1.085
1.158
1.191
1.202
1.18
1.143
1.102
1.068
1.046
1.044
1.042
1.04
1.042
1.052
1.057
1.062
1.066
1.069
1.069
1.065
1.057
1.047
1.029
0.998
0.978
0.967
0.957
0.944
0.932
0.924
0.917
0.91
0.904
0.9
0.896
0.893
0.89
0.888
0.885
0.881
0.875
0.871
0.871
0.881
0.9
0.956
1.046
1.169
1.318
1.469
1.592
1.642
1.635
1.547
1.394
1.196
0.965
0.728
0.509
0.327
0.226
0.192
0.215
0.284
0.393
0.501
0.587
0.64
0.657
0.638
0.578
0.501
0.426
0.354
0.287
0.229
0.179
0.155
0.147
0.165
0.188
0.205
0.181
0.108
-0.004
-0.113
-0.202
-0.27
-0.3
-0.299
-0.263
-0.213
-0.181
-0.228
-0.411
-0.739
-1.165
-1.554
-1.761
-1.682
-1.301
-0.714
-0.108
0.342
0.593
0.649
0.613
0.55
0.515
0.551
0.619
0.649
0.649
0.618
0.578
0.559
0.544
0.534
0.549
0.575
0.597
0.608
0.615
0.619
0.618
0.61
0.598
0.584
0.565
0.552
0.543
0.535
0.529
0.524
0.518
0.512
0.506
0.5
0.492
0.468
0.43
0.389
0.349
0.309
0.267
0.245
0.232
0.226
0.219
0.214
0.207
0.184
0.137
0.064
-0.056
-0.249
-0.525
-0.871
-1.24
-1.551
-1.712
-1.64
-1.313
-0.815
-0.285
0.102
0.238
0.176
0.066
0.009
-0.009
-0.003
0.008
0.003
-0.041
-0.074
-0.084
-0.07
-0.06
-0.054
-0.05
-0.046
-0.043
-0.041
-0.041
-0.04
-0.039
-0.039
-0.037
-0.034
-0.033
-0.036
-0.044
-0.053
-0.064
-0.076
-0.083
-0.088
-0.092
-0.095
-0.099
-0.102
-0.104
-0.107
-0.114
-0.128
-0.147
-0.161
-0.168
-0.172
-0.174
-0.17
-0.162
-0.151
-0.137
-0.129
-0.126
-0.122
-0.117
-0.11
-0.086
-0.049
-0.032
-0.04
-0.096
-0.152
-0.181
-0.191
-0.183
-0.171
-0.156
-0.132
-0.09
-0.003
0.101
0.142
0.059
-0.112
-0.287
-0.419
-0.472
-0.49
-0.48
-0.449
-0.401
-0.316
-0.161
0.036
0.193
0.241
0.243
0.202
0.16
0.149
0.146
0.145
0.143
0.14
0.138
0.135
0.131
0.123
0.113
0.099
0.083
0.06
0.037
0.01
-0.016
-0.04
-0.064
-0.087
-0.095
-0.085
-0.057
0.017
0.13
0.281
0.463
0.652
0.813
0.9
0.878
0.729
0.471
0.157
-0.142
-0.358
-0.449
-0.464
-0.45
-0.406
-0.349
-0.321
-0.312
-0.314
-0.319
-0.311
-0.26
-0.182
-0.092
0.0
0.078
0.136
0.171
0.186
0.193
0.197
0.2
0.201
0.202
0.201
0.199
0.197
0.194
0.191
0.186
0.179
0.168
0.158
0.148
0.141
0.138
0.135
0.133
0.132
0.13
0.129
0.126
0.123
0.12
0.116
0.111
0.104
0.1
0.103
0.108
0.113
0.118
0.123
0.127
0.139
0.168
0.186
0.192
0.197
0.2
0.203
0.213
0.237
0.25
0.26
0.266
0.272
0.278
0.296
0.315
0.322
0.313
0.297
0.282
0.273
0.265
0.257
0.235
0.206
0.172
0.139
0.111
0.095
0.069
0.032
-0.011
-0.054
-0.09
-0.118
-0.141
-0.163
-0.186
-0.199
-0.223
-0.244
-0.257
-0.267
-0.275
-0.282
-0.286
-0.288
-0.289
-0.291
-0.292
-0.293
-0.294
-0.295
-0.296
-0.297
-0.298
-0.301
-0.305
-0.298
-0.289
-0.281
-0.273
-0.263
-0.249
-0.232
-0.216
-0.206
-0.2
-0.195
-0.19
-0.186
-0.183
-0.18
-0.178
-0.176
-0.174
-0.171
-0.169
-0.167
-0.164
-0.158
-0.15
-0.144
-0.141
-0.14
-0.138
-0.136
-0.134
-0.131
-0.128
-0.124
-0.117
-0.106
-0.089
-0.065
-0.044
-0.036
-0.029
-0.024
-0.021
-0.019
-0.017
-0.015
-0.012
-0.01
-0.006
0.003
0.013
0.019
0.016
0.0
-0.014
-0.026
-0.04
-0.049
-0.054
-0.057
-0.057
